Time (s)	P1 (Pa)	P2 (Pa)	P3 (Pa)	P4 (Pa)	P5 (Pa)	P6 (Pa)	P7 (Pa)	P8 (Pa)		H1 (m)	H2 (m)	H3 (m)	H4 (m)
2.19299528509964E-05	-45.9333333333333	-29.4	-69.8666666666667	-54.6666666666667	-55.6	-45.9333333333333	-41.8	-51.9333333333333		0.0004	0.000533333333333	0.000266666666667	0.546666666666667
0.001028905622865	-29.4	-11.4666666666667	-52.8666666666667	-35.4	-28.4666666666667	-18.4	-14.2666666666667	-27.1333333333333		0.0004	0.000533333333333	0.0002	0.547666666666667
0.002010061403904	-8.73333333333333	11	-31.7333333333333	-10.1333333333333	3.66666666666667	12.4	15.1333333333333	2.26666666666667		0.0004	0.000533333333333	0.0002	0.548533333333333
0.003017037073918	11.9333333333333	32.1333333333333	-13.8	12.4	33.5333333333333	42.2666666666667	44.1333333333333	30.8		0.0004	0.000533333333333	0.0002	0.549266666666667
0.004024012743932	23.4	45.4666666666667	-5.06666666666667	26.6666666666667	57.8666666666667	66.6	67.5333333333333	55.6		0.0004	0.000533333333333	0.0002	0.549933333333333
0.005030988413946	24.8	49.1333333333333	-2.26666666666667	33.0666666666667	73.0666666666667	81.3333333333333	81.3333333333333	72.6		0.0004	0.000533333333333	0.0002	0.550466666666667
0.006012144194985	20.6666666666667	45.4666666666667	-3.66666666666667	32.6	78.1333333333333	86.4	86.4	81.3333333333333		0.0004	0.000533333333333	0.0002	0.550933333333333
0.007019119864998	13.3333333333333	38.1333333333333	-9.66666666666667	28.9333333333333	74.8666666666667	84.0666666666667	83.6	81.3333333333333		0.0004	0.000533333333333	0.0002	0.551133333333333
0.008026095535013	0.933333333333333	26.2	-20.6666666666667	17.9333333333333	60.2	69.4	68.4666666666667	68		0.0004	0.000533333333333	0.0002	0.551133333333333
0.009033071205026	-13.8	11	-33.5333333333333	1.4	33.5333333333333	43.6666666666667	41.8	44.1333333333333		0.000333333333333	0.000533333333333	0.0002	0.551
0.010014226986066	-33.0666666666667	-9.66666666666667	-51.9333333333333	-19.2666666666667	0	11	8.73333333333333	12.4		0.0004	0.000533333333333	0.0002	0.550666666666667
0.01102120265608	-55.6	-34.4666666666667	-74.8666666666667	-44.1333333333333	-35.8666666666667	-22.5333333333333	-24.3333333333333	-18.4		0.0004	0.000533333333333	0.0002	0.5502
0.012028178326094	-66.1333333333333	-46.8666666666667	-85.9333333333333	-58.3333333333333	-59.2666666666667	-46.8666666666667	-48.2666666666667	-41.8		0.0004	0.000466666666667	0.0002	0.5494
0.013009334107133	-62.9333333333333	-45.4666666666667	-82.2666666666667	-60.6666666666667	-71.6666666666667	-58.3333333333333	-60.6666666666667	-56.5333333333333		0.0004	0.000466666666667	0.0002	0.548466666666667
0.014016309777147	-57.8666666666667	-41.8	-77.6666666666667	-59.2666666666667	-75.3333333333333	-61.6	-60.6666666666667	-60.2		0.0004	0.000533333333333	0.000133333333333	0.547333333333333
0.015023285447161	-53.2666666666667	-38.6	-74	-57.8666666666667	-69.4	-55.6	-53.2666666666667	-56.5333333333333		0.0004	0.000466666666667	0.000133333333333	0.546
0.016030261117175	-50.5333333333333	-36.7333333333333	-71.2	-56.5333333333333	-60.2	-46.8666666666667	-42.2666666666667	-50.0666666666667		0.0004	0.000466666666667	0.0002	0.544733333333333
0.017011416898215	-45.4666666666667	-29.4	-65.2666666666667	-51.4666666666667	-46.8666666666667	-34.9333333333333	-29.4	-39.5333333333333		0.0004	0.000466666666667	0.0002	0.543666666666667
0.018018392568228	-36.7333333333333	-18.4	-57.8666666666667	-41.3333333333333	-29.4	-21.1333333333333	-15.1333333333333	-28.4666666666667		0.0004	0.000466666666667	0.000133333333333	0.542866666666667
0.019025368238242	-30.8	-9.66666666666667	-52.8666666666667	-31.7333333333333	-11	-4.6	0	-13.8		0.0004	0.000466666666667	0.000133333333333	0.5426
0.020032343908255	-24.8	-2.73333333333333	-48.2666666666667	-22.5333333333333	6	13.8	16.5333333333333	2.73333333333333		0.0004	0.000533333333333	0.000133333333333	0.542733333333333
0.021013499689295	-21.1333333333333	2.26666666666667	-46.4	-16.0666666666667	19.7333333333333	29.4	31.7333333333333	19.7333333333333		0.0004	0.000533333333333	0.000133333333333	0.543133333333333
0.022020475359309	-16.0666666666667	6.4	-43.2	-8.73333333333333	34.4666666666667	45.4666666666667	47.3333333333333	39.0666666666667		0.0004	0.000466666666667	0.000133333333333	0.543866666666667
0.023027451029323	-5.06666666666667	15.1333333333333	-33.5333333333333	3.66666666666667	46.8666666666667	58.3333333333333	59.2666666666667	53.7333333333333		0.0004	0.000466666666667	0.000133333333333	0.544866666666667
0.024034426699338	4.6	24.3333333333333	-23.4	14.2666666666667	52.8666666666667	62	62	59.2666666666667		0.0004	0.000466666666667	0.0002	0.545866666666667
0.025015582480376	8.73333333333333	28.4666666666667	-18.4	18.8666666666667	51.9333333333333	59.7333333333333	59.7333333333333	60.2		0.0004	0.000466666666667	0.0002	0.546733333333333
0.02602255815039	8.26666666666667	28.4666666666667	-18.4	17.9333333333333	45.9333333333333	54.6666666666667	54.2	55.6		0.0004	0.000466666666667	0.000133333333333	0.5476
0.027029533820404	1.4	21.1333333333333	-22.0666666666667	12.4	33.5333333333333	43.2	42.2666666666667	45.4666666666667		0.0004	0.000533333333333	0.000133333333333	0.548266666666667
0.028010689601444	-7.33333333333333	11.4666666666667	-28.4666666666667	3.66666666666667	16.0666666666667	24.8	24.3333333333333	27.1333333333333		0.0004	0.000466666666667	0.0002	0.548733333333333
0.029017665271457	-19.7333333333333	0.933333333333333	-39.0666666666667	-8.73333333333333	-5.06666666666667	2.26666666666667	1.4	2.73333333333333		0.0004	0.000466666666667	0.0002	0.549
0.030024640941472	-33.0666666666667	-11.4666666666667	-52.8666666666667	-23.8666666666667	-25.7333333333333	-20.6666666666667	-21.6	-22.0666666666667		0.0004	0.000466666666667	0.0002	0.549
0.031031616611485	-48.2666666666667	-27.1333333333333	-68.9333333333333	-41.3333333333333	-44.6	-39.5333333333333	-40.4	-41.8		0.0004	0.000466666666667	0.000133333333333	0.548666666666667
0.032012772392524	-62.4666666666667	-43.2	-83.1333333333333	-57.8666666666667	-57.8666666666667	-51.9333333333333	-51	-55.1333333333333		0.0004	0.000466666666667	0.000133333333333	0.5482
0.033019748062538	-70.2666666666667	-51.9333333333333	-90.0666666666667	-68	-62	-54.6666666666667	-53.2666666666667	-57.8666666666667		0.0004	0.000533333333333	0.000133333333333	0.547533333333333
0.034026723732552	-71.2	-54.2	-93.2666666666667	-72.1333333333333	-60.2	-50.5333333333333	-47.3333333333333	-53.7333333333333		0.0004	0.000533333333333	0.000133333333333	0.546666666666667
0.035033699402566	-62.9333333333333	-46.8666666666667	-85.9333333333333	-68	-50.5333333333333	-40.8666666666667	-38.1333333333333	-45.4666666666667		0.0004	0.000466666666667	0.000133333333333	0.545666666666667
0.036014855183606	-51.9333333333333	-35.8666666666667	-74	-58.3333333333333	-37.2	-30.8	-26.6666666666667	-35.8666666666667		0.0004	0.000533333333333	0.0002	0.544533333333333
0.03702183085362	-45.9333333333333	-29.4	-69.8666666666667	-51.9333333333333	-23.4	-17.4666666666667	-12.4	-22.0666666666667		0.0004	0.000533333333333	0.0002	0.5434
0.038028806523633	-39.0666666666667	-19.7333333333333	-62.9333333333333	-41.8	-8.73333333333333	-1.4	4.13333333333333	-6.4		0.0004	0.000533333333333	0.000133333333333	0.542466666666667
0.039009962304673	-27.1333333333333	-6	-51.9333333333333	-28	2.73333333333333	11	17.4666666666667	6.4		0.0004	0.000533333333333	0.000133333333333	0.541666666666667
0.040016937974686	-15.1333333333333	8.26666666666667	-39.5333333333333	-12.4	13.8	22.5333333333333	28	18.4		0.0004	0.000533333333333	0.0002	0.541133333333333
0.0410239136447	-2.73333333333333	21.1333333333333	-28	3.66666666666667	28.4666666666667	37.2	40.8666666666667	33.0666666666667		0.0004	0.000466666666667	0.0002	0.5408
0.042030889314714	2.73333333333333	27.6	-22.0666666666667	13.8	35.8666666666667	46.8666666666667	49.6	44.1333333333333		0.0004	0.000466666666667	0.0002	0.5406
0.043012045095754	3.66666666666667	30.8	-19.7333333333333	18.8666666666667	34.9333333333333	48.2666666666667	50.5333333333333	46.8666666666667		0.0004	0.000533333333333	0.000133333333333	0.540666666666667
0.044019020765767	2.73333333333333	29.8666666666667	-18.4	20.2	33.5333333333333	46.8666666666667	48.2666666666667	46.8666666666667		0.0004	0.000533333333333	0.000133333333333	0.540866666666667
0.045025996435781	0	26.2	-20.6666666666667	17.4666666666667	32.1333333333333	45.9333333333333	46.8666666666667	46.8666666666667		0.0004	0.000533333333333	0.000133333333333	0.540866666666667
0.046032972105794	-2.26666666666667	22.5333333333333	-23	14.2666666666667	29.8666666666667	43.2	42.2666666666667	42.7333333333333		0.0004	0.000533333333333	0.0002	0.541
0.047014127886834	-10.1333333333333	14.7333333333333	-29.8666666666667	6	18.4	29.4	28	28		0.0004	0.000533333333333	0.0002	0.541133333333333
0.048021103556848	-26.2	-2.26666666666667	-46.8666666666667	-12.8666666666667	-2.73333333333333	6.4	5.06666666666667	4.6		0.0004	0.000533333333333	0.0002	0.541266666666667
0.049028079226862	-40.8666666666667	-18.8666666666667	-62.9333333333333	-31.7333333333333	-20.6666666666667	-12.4	-14.2666666666667	-17.4666666666667		0.0004	0.000466666666667	0.0002	0.541466666666667
0.050009235007901	-51.9333333333333	-32.1333333333333	-74.8666666666667	-46.8666666666667	-33.5333333333333	-27.1333333333333	-28	-33.0666666666667		0.0004	0.000533333333333	0.0002	0.541666666666667
0.051016210677915	-58.8	-40.4	-83.6	-58.3333333333333	-45.4666666666667	-38.6	-39.5333333333333	-44.1333333333333		0.0004	0.000533333333333	0.0002	0.541866666666667
0.052023186347929	-57.8666666666667	-40.8666666666667	-84.5333333333333	-62.9333333333333	-51.4666666666667	-44.6	-44.6	-50.5333333333333		0.0004	0.000533333333333	0.0002	0.541933333333333
0.053030162017943	-52.8666666666667	-38.1333333333333	-79.9333333333333	-61.6	-49.6	-42.2666666666667	-40.4	-48.2666666666667		0.0004	0.000533333333333	0.0002	0.542333333333333
0.054011317798983	-49.1333333333333	-34.4666666666667	-75.8	-57.8666666666667	-44.1333333333333	-35.8666666666667	-31.7333333333333	-40.8666666666667		0.0004	0.000533333333333	0.0002	0.542733333333333
0.055018293468996	-45.4666666666667	-29.4	-71.2	-53.2666666666667	-35.8666666666667	-27.6	-22.5333333333333	-32.1333333333333		0.0004	0.000533333333333	0.0002	0.543
0.056025269139011	-36.7333333333333	-18.4	-62.4666666666667	-44.1333333333333	-24.8	-16.0666666666667	-11	-19.7333333333333		0.0004	0.000533333333333	0.0002	0.543133333333333
0.057032244809024	-24.8	-4.6	-49.1333333333333	-28.9333333333333	-9.66666666666667	-0.933333333333333	5.06666666666667	-5.06666666666667		0.0004	0.000533333333333	0.0002	0.5432
0.058013400590063	-14.7333333333333	6.4	-36.7333333333333	-13.8	6.4	14.7333333333333	20.6666666666667	10.1333333333333		0.0004	0.000533333333333	0.0002	0.543
0.059020376260077	-12.4	11.4666666666667	-31.7333333333333	-6	17	26.2	32.6	22.5333333333333		0.0004	0.000466666666667	0.0002	0.542533333333333
0.060027351930091	-14.7333333333333	11	-33.5333333333333	-3.66666666666667	20.6666666666667	32.1333333333333	36.7333333333333	29.4		0.0004	0.000466666666667	0.0002	0.541933333333333
0.061034327600106	-13.8	11.4666666666667	-31.7333333333333	0.933333333333333	22.0666666666667	33.5333333333333	36.7333333333333	30.8		0.0004	0.000466666666667	0.0002	0.5414
0.062015483381145	-11	14.7333333333333	-28	7.33333333333333	20.6666666666667	33.0666666666667	35.8666666666667	29.4		0.0004	0.000466666666667	0.0002	0.5406
0.063022459051159	-11	13.8	-28.4666666666667	7.8	17.4666666666667	31.2666666666667	33.0666666666667	29.4		0.0004	0.000466666666667	0.0002	0.539933333333333
0.064029434721172	-12.4	11	-31.7333333333333	4.13333333333333	13.8	29.8666666666667	30.8	29.4		0.0004	0.000533333333333	0.0002	0.5392
0.065010590502212	-17	6	-36.7333333333333	-2.26666666666667	6.4	23.8666666666667	25.7333333333333	24.8		0.0004	0.000533333333333	0.0002	0.538466666666667
0.066017566172225	-22.5333333333333	-1.4	-42.7333333333333	-11	-2.73333333333333	13.8	15.6	13.8		0.0004	0.000533333333333	0.000133333333333	0.537933333333333
0.06702454184224	-28	-8.26666666666667	-50.0666666666667	-19.2666666666667	-12.4	2.26666666666667	2.73333333333333	0		0.0004	0.000533333333333	0.000133333333333	0.537533333333333
0.068031517512253	-32.1333333333333	-13.8	-57.4	-28.9333333333333	-21.1333333333333	-7.8	-7.8	-13.3333333333333		0.0004	0.000533333333333	0.000133333333333	0.5372
0.069012673293292	-37.2	-18.8666666666667	-64.8	-38.1333333333333	-28	-16.0666666666667	-15.6	-22.5333333333333		0.0004	0.000533333333333	0.000133333333333	0.537
0.070019648963306	-47.8	-29.8666666666667	-76.2666666666667	-49.6	-34.9333333333333	-23.8666666666667	-23.8666666666667	-31.7333333333333		0.0004	0.000533333333333	0.000133333333333	0.5372
0.07102662463332	-54.2	-38.1333333333333	-83.1333333333333	-57.8666666666667	-40.4	-29.4	-28.9333333333333	-36.7333333333333		0.0004	0.000533333333333	0.0002	0.537466666666667
0.072033600303334	-46.8666666666667	-29.8666666666667	-75.8	-51.9333333333333	-34.9333333333333	-24.8	-24.3333333333333	-33.0666666666667		0.0004	0.000533333333333	0.0002	0.537866666666667
0.073014756084374	-36.7333333333333	-18.8666666666667	-63.8666666666667	-41.3333333333333	-25.7333333333333	-16.0666666666667	-14.2666666666667	-23.4		0.0004	0.000533333333333	0.0002	0.538333333333333
0.074021731754388	-28.4666666666667	-11.4666666666667	-55.1333333333333	-32.6	-17	-7.33333333333333	-5.06666666666667	-13.8		0.0004	0.000533333333333	0.0002	0.538933333333333
0.075028707424401	-21.1333333333333	-3.66666666666667	-45.4666666666667	-22.5333333333333	-7.33333333333333	2.73333333333333	6.4	-2.26666666666667		0.0004	0.000533333333333	0.0002	0.539533333333333
0.076009863205441	-14.7333333333333	4.6	-38.1333333333333	-12.4	4.6	14.7333333333333	20.2	13.3333333333333		0.0004	0.000533333333333	0.0002	0.54
0.077016838875454	-9.66666666666667	11.4666666666667	-31.7333333333333	-4.13333333333333	13.8	25.7333333333333	30.8	24.8		0.0004	0.000533333333333	0.0002	0.540333333333333
0.078023814545468	-6.4	16.0666666666667	-26.6666666666667	2.26666666666667	18.8666666666667	30.8	35.4	28.4666666666667		0.0004	0.000533333333333	0.0002	0.5404
0.079030790215482	-10.1333333333333	13.8	-28	2.26666666666667	17.4666666666667	28.4666666666667	32.6	26.2		0.0004	0.000533333333333	0.0002	0.540066666666667
0.080011945996522	-21.1333333333333	3.66666666666667	-38.1333333333333	-6.4	10.1333333333333	22.0666666666667	25.2666666666667	19.7333333333333		0.0004	0.000533333333333	0.0002	0.539533333333333
0.081018921666535	-33.0666666666667	-8.26666666666667	-49.1333333333333	-17.4666666666667	1.4	12.4	14.2666666666667	9.66666666666667		0.0004	0.000533333333333	0.0002	0.538866666666667
0.08202589733655	-43.2	-18.8666666666667	-60.2	-28	-11.4666666666667	-0.933333333333333	0.933333333333333	-3.66666666666667		0.0004	0.000533333333333	0.0002	0.538133333333333
0.083032873006562	-45.9333333333333	-23.4	-65.2666666666667	-33.0666666666667	-20.6666666666667	-9.66666666666667	-7.8	-12.4		0.0004	0.000533333333333	0.0002	0.5376
0.084014028787602	-40.8666666666667	-21.1333333333333	-61.6	-31.7333333333333	-22.0666666666667	-10.1333333333333	-9.2	-14.7333333333333		0.0004	0.000533333333333	0.000133333333333	0.537133333333333
0.085021004457616	-35.8666666666667	-18.4	-58.8	-31.2666666666667	-22.5333333333333	-11.4666666666667	-10.1333333333333	-16.0666666666667		0.0004	0.000533333333333	0.0002	0.5366
0.08602798012763	-29.4	-11.4666666666667	-54.2	-28	-21.1333333333333	-9.66666666666667	-7.8	-13.8		0.0004	0.000533333333333	0.0002	0.536133333333333
0.087034955797645	-21.1333333333333	-4.6	-48.2666666666667	-23	-14.7333333333333	-3.66666666666667	-1.4	-6.4		0.0004	0.000533333333333	0.0002	0.535866666666667
0.088016111578684	-16.0666666666667	-0.933333333333333	-45.4666666666667	-19.2666666666667	-8.26666666666667	2.73333333333333	6.4	0		0.0004	0.000533333333333	0.0002	0.535666666666667
0.089023087248697	-10.1333333333333	6	-40.8666666666667	-14.2666666666667	1.4	11.4666666666667	15.1333333333333	6.4		0.000466666666667	0.000533333333333	0.0002	0.535466666666667
0.090030062918711	-10.1333333333333	8.26666666666667	-39.5333333333333	-12.8666666666667	6.4	17.4666666666667	20.2	11.9333333333333		0.000466666666667	0.000533333333333	0.0002	0.535333333333333
0.091011218699751	-18.4	2.73333333333333	-44.1333333333333	-16.5333333333333	6.4	17	20.6666666666667	13.3333333333333		0.000466666666667	0.000533333333333	0.0002	0.535066666666667
0.092018194369764	-24.8	-3.66666666666667	-47.8	-19.2666666666667	6	15.1333333333333	19.2666666666667	11.9333333333333		0.000466666666667	0.000533333333333	0.0002	0.534733333333333
0.093025170039779	-35.4	-13.8	-57.4	-26.6666666666667	-1.4	7.8	11.4666666666667	5.06666666666667		0.000466666666667	0.000533333333333	0.0002	0.534333333333333
0.094032145709792	-44.1333333333333	-22.0666666666667	-64.8	-33.0666666666667	-10.1333333333333	0.933333333333333	2.73333333333333	0		0.0004	0.000533333333333	0.0002	0.534
0.095013301490831	-43.2	-22.0666666666667	-63.8666666666667	-33.0666666666667	-13.8	-2.26666666666667	0	-2.26666666666667		0.0004	0.000533333333333	0.0002	0.5338
0.096020277160845	-44.6	-24.3333333333333	-64.8	-34.4666666666667	-18.4	-5.06666666666667	-2.73333333333333	-5.06666666666667		0.0004	0.000533333333333	0.0002	0.533733333333333
0.097027252830859	-46.8666666666667	-27.1333333333333	-66.6	-36.7333333333333	-24.3333333333333	-9.66666666666667	-7.33333333333333	-9.66666666666667		0.0004	0.000533333333333	0.0002	0.533666666666667
0.098034228500874	-40.4	-21.1333333333333	-61.6	-34	-27.1333333333333	-13.3333333333333	-11	-13.8		0.000466666666667	0.000533333333333	0.0002	0.5336
0.099015384281913	-31.7333333333333	-11.4666666666667	-53.7333333333333	-28	-25.7333333333333	-13.3333333333333	-11	-14.7333333333333		0.0004	0.000533333333333	0.0002	0.5336
0.100022359951927	-24.3333333333333	-5.06666666666667	-45.4666666666667	-21.6	-18.8666666666667	-8.73333333333333	-6.4	-12.4		0.0004	0.000533333333333	0.0002	0.5336
0.101029335621941	-14.7333333333333	3.66666666666667	-37.2	-12.8666666666667	-9.66666666666667	-1.4	0.933333333333333	-7.33333333333333		0.0004	0.000533333333333	0.0002	0.533466666666667
0.10201049140298	-9.66666666666667	8.73333333333333	-34.4666666666667	-7.8	-1.4	6.4	9.2	0.933333333333333		0.0004	0.000533333333333	0.0002	0.533266666666667
0.103017467072993	-12.4	7.33333333333333	-38.1333333333333	-8.73333333333333	2.73333333333333	12.4	15.6	7.33333333333333		0.000466666666667	0.000533333333333	0.0002	0.533333333333333
0.104024442743007	-17	2.73333333333333	-41.8	-11	8.26666666666667	16.0666666666667	19.2666666666667	10.1333333333333		0.0004	0.000533333333333	0.0002	0.5334
0.105031418413021	-23.4	-2.73333333333333	-47.8	-16.0666666666667	9.66666666666667	18.4	20.6666666666667	12.4		0.0004	0.000533333333333	0.0002	0.533333333333333
0.106012574194061	-28	-7.33333333333333	-53.7333333333333	-21.1333333333333	9.66666666666667	18.8666666666667	21.6	13.8		0.0004	0.000533333333333	0.0002	0.533333333333333
0.107019549864074	-32.1333333333333	-10.1333333333333	-57.4	-25.2666666666667	6	14.7333333333333	17.4666666666667	10.1333333333333		0.0004	0.000533333333333	0.0002	0.533466666666667
0.108026525534089	-40.4	-19.7333333333333	-65.2666666666667	-34	-2.26666666666667	6.4	7.8	2.26666666666667		0.0004	0.000533333333333	0.0002	0.533466666666667
0.109033501204102	-44.1333333333333	-24.3333333333333	-68.9333333333333	-38.1333333333333	-8.73333333333333	1.4	3.66666666666667	0		0.0004	0.000533333333333	0.0002	0.533333333333333
0.110014656985141	-40.8666666666667	-21.1333333333333	-65.2666666666667	-36.2666666666667	-13.8	-2.73333333333333	0	-1.4		0.0004	0.000533333333333	0.0002	0.533133333333333
0.111021632655156	-39.0666666666667	-18.8666666666667	-62.4666666666667	-34.4666666666667	-20.6666666666667	-7.8	-5.06666666666667	-6		0.0004	0.000533333333333	0.0002	0.532666666666667
0.112028608325169	-33.0666666666667	-13.8	-55.6	-28.9333333333333	-23.4	-9.66666666666667	-6.4	-7.33333333333333		0.0004	0.000533333333333	0.0002	0.532066666666667
